Radial XRay Distribution Layer K of Element Cu
Distance (nm)	Intensity	Intensity Absorbed
0.000000	111.260633	111.007526
1.910614	71.135527	70.942623
3.821229	34.706002	34.578979
5.731843	18.396332	18.306339
7.642458	11.953890	11.883635
9.553072	8.778789	8.720711
11.463687	6.888447	6.838545
13.374301	5.632328	5.588481
15.284916	4.727294	4.688146
17.195530	4.045733	4.010478
19.106145	3.525353	3.493193
21.016759	3.115873	3.086275
22.927374	2.781374	2.753966
24.837988	2.507707	2.482183
26.748603	2.271823	2.247996
28.659217	2.079667	2.057287
30.569832	1.913348	1.892247
32.480446	1.767999	1.748043
34.391061	1.640846	1.621929
36.301675	1.528311	1.510334
38.212290	1.427983	1.410891
40.122904	1.341218	1.324904
42.033519	1.259469	1.243891
43.944133	1.185802	1.170926
45.854748	1.124158	1.109866
47.765362	1.061693	1.048020
49.675976	1.006494	0.993386
51.586591	0.957437	0.944819
53.497205	0.913543	0.901361
55.407820	0.870596	0.858863
57.318434	0.832012	0.820697
59.229049	0.792284	0.781404
61.139663	0.759651	0.749133
63.050278	0.727768	0.717614
64.960892	0.699253	0.689408
66.871507	0.672121	0.662590
68.782121	0.644998	0.635786
70.692736	0.620794	0.611869
72.603350	0.596837	0.588198
74.513965	0.574627	0.566267
76.424579	0.555669	0.547534
78.335194	0.535413	0.527544
80.245808	0.516387	0.508751
82.156423	0.498424	0.491029
84.067037	0.482158	0.474973
85.977652	0.465994	0.459017
87.888266	0.449695	0.442934
89.798881	0.435541	0.428972
91.709495	0.421476	0.415094
93.620109	0.408020	0.401819
95.530724	0.395880	0.389835
97.441338	0.383457	0.377584
99.351953	0.371098	0.365394
101.262567	0.360569	0.355012
103.173182	0.349798	0.344391
105.083796	0.339245	0.333986
106.994411	0.328757	0.323644
108.905025	0.319540	0.314559
110.815640	0.310313	0.305463
112.726254	0.300925	0.296212
114.636869	0.292853	0.288258
116.547483	0.284421	0.279947
118.458098	0.275861	0.271516
120.368712	0.268717	0.264482
122.279327	0.260553	0.256436
124.189941	0.253566	0.249550
126.100556	0.246323	0.242419
128.011170	0.238729	0.234942
129.921785	0.232836	0.229138
131.832399	0.226125	0.222533
133.743014	0.219646	0.216151
135.653628	0.213670	0.210269
137.564243	0.207939	0.204626
139.474857	0.201672	0.198455
141.385471	0.196369	0.193232
143.296086	0.190692	0.187643
145.206700	0.185668	0.182701
147.117315	0.180404	0.177520
149.027929	0.175160	0.172359
150.938544	0.170587	0.167859
152.849158	0.165945	0.163289
154.759773	0.161333	0.158749
156.670387	0.157001	0.154489
158.581002	0.152447	0.150007
160.491616	0.148317	0.145942
162.402231	0.144141	0.141831
164.312845	0.140325	0.138080
166.223460	0.136614	0.134424
168.134074	0.132646	0.130521
170.044689	0.129140	0.127076
171.955303	0.125162	0.123158
173.865918	0.121573	0.119629
175.776532	0.118025	0.116140
177.687147	0.114808	0.112971
179.597761	0.111599	0.109816
181.508376	0.108267	0.106537
183.418990	0.105249	0.103566
185.329605	0.102286	0.100651
187.240219	0.099239	0.097655
189.150833	0.096243	0.094705
191.061448	0.093566	0.092075
192.972062	0.091041	0.089590
194.882677	0.088197	0.086791
196.793291	0.085794	0.084428
198.703906	0.083133	0.081810
200.614520	0.080634	0.079352
202.525135	0.077842	0.076603
204.435749	0.075682	0.074480
206.346364	0.073323	0.072158
208.256978	0.071194	0.070066
210.167593	0.069138	0.068042
212.078207	0.066903	0.065844
213.988822	0.064951	0.063923
215.899436	0.062873	0.061879
217.810051	0.060868	0.059905
219.720665	0.059016	0.058085
221.631280	0.057249	0.056348
223.541894	0.055445	0.054573
225.452509	0.053638	0.052793
227.363123	0.051815	0.051001
229.273738	0.050382	0.049591
231.184352	0.048729	0.047966
233.094966	0.047131	0.046392
235.005581	0.045461	0.044751
236.916195	0.044052	0.043366
238.826810	0.042653	0.041988
240.737424	0.041161	0.040520
242.648039	0.039758	0.039141
244.558653	0.038324	0.037730
246.469268	0.037029	0.036455
248.379882	0.035896	0.035341
250.290497	0.034566	0.034032
252.201111	0.033255	0.032741
254.111726	0.032247	0.031750
256.022340	0.031071	0.030594
257.932955	0.029923	0.029465
259.843569	0.028857	0.028416
261.754184	0.027872	0.027447
263.664798	0.026830	0.026420
265.575413	0.025884	0.025490
267.486027	0.024842	0.024464
269.396642	0.024020	0.023656
271.307256	0.023051	0.022702
273.217871	0.022113	0.021779
275.128485	0.021286	0.020965
277.039100	0.020487	0.020179
278.949714	0.019732	0.019436
280.860328	0.018973	0.018689
282.770943	0.018198	0.017927
284.681557	0.017588	0.017326
286.592172	0.016817	0.016567
288.502786	0.016074	0.015836
290.413401	0.015437	0.015209
292.324015	0.014792	0.014573
294.234630	0.014168	0.013960
296.145244	0.013630	0.013430
298.055859	0.013039	0.012848
299.966473	0.012435	0.012253
301.877088	0.011946	0.011771
303.787702	0.011423	0.011257
305.698317	0.010952	0.010794
307.608931	0.010423	0.010272
309.519546	0.010031	0.009887
311.430160	0.009544	0.009407
313.340775	0.009143	0.009012
315.251389	0.008715	0.008591
317.162004	0.008321	0.008203
319.072618	0.007963	0.007850
320.983233	0.007560	0.007452
322.893847	0.007204	0.007103
324.804462	0.006867	0.006771
326.715076	0.006525	0.006434
328.625690	0.006213	0.006127
330.536305	0.005920	0.005838
332.446919	0.005609	0.005532
334.357534	0.005314	0.005240
336.268148	0.005054	0.004985
338.178763	0.004816	0.004750
340.089377	0.004561	0.004498
341.999992	0.004310	0.004251
343.910606	0.004075	0.004020
345.821221	0.003845	0.003793
347.731835	0.003666	0.003617
349.642450	0.003460	0.003413
351.553064	0.003268	0.003224
353.463679	0.003084	0.003042
355.374293	0.002907	0.002869
357.284908	0.002763	0.002726
359.195522	0.002591	0.002557
361.106137	0.002445	0.002413
363.016751	0.002293	0.002263
364.927366	0.002166	0.002138
366.837980	0.002032	0.002006
368.748595	0.001926	0.001901
370.659209	0.001798	0.001775
372.569823	0.001677	0.001655
374.480438	0.001572	0.001552
376.391052	0.001483	0.001464
378.301667	0.001378	0.001360
380.212281	0.001287	0.001271
382.122896	0.001202	0.001187
384.033510	0.001123	0.001109
385.944125	0.001044	0.001031
387.854739	0.000980	0.000968
389.765354	0.000911	0.000900
391.675968	0.000849	0.000839
393.586583	0.000781	0.000772
395.497197	0.000731	0.000722
397.407812	0.000674	0.000666
399.318426	0.000631	0.000624
401.229041	0.000580	0.000573
403.139655	0.000539	0.000532
405.050270	0.000492	0.000486
406.960884	0.000454	0.000449
408.871499	0.000422	0.000417
410.782113	0.000383	0.000379
412.692728	0.000350	0.000346
414.603342	0.000327	0.000323
416.513957	0.000298	0.000295
418.424571	0.000273	0.000270
420.335185	0.000246	0.000243
422.245800	0.000225	0.000223
424.156414	0.000203	0.000201
426.067029	0.000187	0.000185
427.977643	0.000169	0.000167
429.888258	0.000153	0.000152
431.798872	0.000140	0.000139
433.709487	0.000126	0.000124
435.620101	0.000113	0.000112
437.530716	0.000102	0.000101
439.441330	0.000092	0.000092
441.351945	0.000083	0.000082
443.262559	0.000075	0.000074
445.173174	0.000065	0.000064
447.083788	0.000060	0.000059
448.994403	0.000053	0.000052
450.905017	0.000048	0.000047
452.815632	0.000041	0.000040
454.726246	0.000037	0.000036
456.636861	0.000033	0.000033
458.547475	0.000028	0.000027
460.458090	0.000025	0.000024
462.368704	0.000022	0.000022
464.279319	0.000019	0.000019
466.189933	0.000017	0.000017
468.100547	0.000015	0.000014
470.011162	0.000013	0.000013
471.921776	0.000011	0.000011
473.832391	0.000009	0.000009
475.743005	0.000008	0.000008
477.653620	0.000007	0.000007
479.564234	0.000006	0.000006
481.474849	0.000005	0.000005
483.385463	0.000004	0.000004
485.296078	0.000003	0.000003
487.206692	0.000003	0.000003
489.117307	0.000003	0.000003
491.027921	0.000002	0.000002
492.938536	0.000002	0.000002
494.849150	0.000001	0.000001
496.759765	0.000001	0.000001
498.670379	0.000001	0.000001
500.580994	0.000001	0.000001
502.491608	0.000001	0.000001
504.402223	0.000000	0.000000
506.312837	0.000000	0.000000
508.223452	0.000000	0.000000
510.134066	0.000000	0.000000
512.044680	0.000000	0.000000
513.955295	0.000000	0.000000
515.865909	0.000000	0.000000
517.776524	0.000000	0.000000
519.687138	0.000000	0.000000
521.597753	0.000000	0.000000
523.508367	0.000000	0.000000
525.418982	0.000000	0.000000
527.329596	0.000000	0.000000
529.240211	0.000000	0.000000
531.150825	0.000000	0.000000
533.061440	0.000000	0.000000
534.972054	0.000000	0.000000
536.882669	0.000000	0.000000
538.793283	0.000000	0.000000
540.703898	0.000000	0.000000
542.614512	0.000000	0.000000
544.525127	0.000000	0.000000
546.435741	0.000000	0.000000
548.346356	0.000000	0.000000
550.256970	0.000000	0.000000
552.167585	0.000000	0.000000
554.078199	0.000000	0.000000
555.988814	0.000000	0.000000
557.899428	0.000000	0.000000
559.810042	0.000000	0.000000
561.720657	0.000000	0.000000
563.631271	0.000000	0.000000
565.541886	0.000000	0.000000
567.452500	0.000000	0.000000
569.363115	0.000000	0.000000
571.273729	0.000000	0.000000
573.184344	0.000000	0.000000
575.094958	0.000000	0.000000
577.005573	0.000000	0.000000
578.916187	0.000000	0.000000
580.826802	0.000000	0.000000
582.737416	0.000000	0.000000
584.648031	0.000000	0.000000
586.558645	0.000000	0.000000
588.469260	0.000000	0.000000
590.379874	0.000000	0.000000
592.290489	0.000000	0.000000
594.201103	0.000000	0.000000
596.111718	0.000000	0.000000
598.022332	0.000000	0.000000
599.932947	0.000000	0.000000
601.843561	0.000000	0.000000
603.754176	0.000000	0.000000
605.664790	0.000000	0.000000
607.575404	0.000000	0.000000
609.486019	0.000000	0.000000
611.396633	0.000000	0.000000
613.307248	0.000000	0.000000
615.217862	0.000000	0.000000
617.128477	0.000000	0.000000
619.039091	0.000000	0.000000
620.949706	0.000000	0.000000
622.860320	0.000000	0.000000
624.770935	0.000000	0.000000
626.681549	0.000000	0.000000
628.592164	0.000000	0.000000
630.502778	0.000000	0.000000
632.413393	0.000000	0.000000
634.324007	0.000000	0.000000
636.234622	0.000000	0.000000
638.145236	0.000000	0.000000
640.055851	0.000000	0.000000
641.966465	0.000000	0.000000
643.877080	0.000000	0.000000
645.787694	0.000000	0.000000
647.698309	0.000000	0.000000
649.608923	0.000000	0.000000
651.519537	0.000000	0.000000
653.430152	0.000000	0.000000
655.340766	0.000000	0.000000
657.251381	0.000000	0.000000
659.161995	0.000000	0.000000
661.072610	0.000000	0.000000
662.983224	0.000000	0.000000
664.893839	0.000000	0.000000
666.804453	0.000000	0.000000
668.715068	0.000000	0.000000
670.625682	0.000000	0.000000
672.536297	0.000000	0.000000
674.446911	0.000000	0.000000
676.357526	0.000000	0.000000
678.268140	0.000000	0.000000
680.178755	0.000000	0.000000
682.089369	0.000000	0.000000
683.999984	0.000000	0.000000
685.910598	0.000000	0.000000
687.821213	0.000000	0.000000
689.731827	0.000000	0.000000
691.642442	0.000000	0.000000
693.553056	0.000000	0.000000
695.463671	0.000000	0.000000
697.374285	0.000000	0.000000
699.284899	0.000000	0.000000
701.195514	0.000000	0.000000
703.106128	0.000000	0.000000
705.016743	0.000000	0.000000
706.927357	0.000000	0.000000
708.837972	0.000000	0.000000
710.748586	0.000000	0.000000
712.659201	0.000000	0.000000
714.569815	0.000000	0.000000
716.480430	0.000000	0.000000
718.391044	0.000000	0.000000
720.301659	0.000000	0.000000
722.212273	0.000000	0.000000
724.122888	0.000000	0.000000
726.033502	0.000000	0.000000
727.944117	0.000000	0.000000
729.854731	0.000000	0.000000
731.765346	0.000000	0.000000
733.675960	0.000000	0.000000
735.586575	0.000000	0.000000
737.497189	0.000000	0.000000
739.407804	0.000000	0.000000
741.318418	0.000000	0.000000
743.229033	0.000000	0.000000
745.139647	0.000000	0.000000
747.050261	0.000000	0.000000
748.960876	0.000000	0.000000
750.871490	0.000000	0.000000
752.782105	0.000000	0.000000
754.692719	0.000000	0.000000
756.603334	0.000000	0.000000
758.513948	0.000000	0.000000
760.424563	0.000000	0.000000
762.335177	0.000000	0.000000
764.245792	0.000000	0.000000
766.156406	0.000000	0.000000
768.067021	0.000000	0.000000
769.977635	0.000000	0.000000
771.888250	0.000000	0.000000
773.798864	0.000000	0.000000
775.709479	0.000000	0.000000
777.620093	0.000000	0.000000
779.530708	0.000000	0.000000
781.441322	0.000000	0.000000
783.351937	0.000000	0.000000
785.262551	0.000000	0.000000
787.173166	0.000000	0.000000
789.083780	0.000000	0.000000
790.994394	0.000000	0.000000
792.905009	0.000000	0.000000
794.815623	0.000000	0.000000
796.726238	0.000000	0.000000
798.636852	0.000000	0.000000
800.547467	0.000000	0.000000
802.458081	0.000000	0.000000
804.368696	0.000000	0.000000
806.279310	0.000000	0.000000
808.189925	0.000000	0.000000
810.100539	0.000000	0.000000
812.011154	0.000000	0.000000
813.921768	0.000000	0.000000
815.832383	0.000000	0.000000
817.742997	0.000000	0.000000
819.653612	0.000000	0.000000
821.564226	0.000000	0.000000
823.474841	0.000000	0.000000
825.385455	0.000000	0.000000
827.296070	0.000000	0.000000
829.206684	0.000000	0.000000
831.117299	0.000000	0.000000
833.027913	0.000000	0.000000
834.938528	0.000000	0.000000
836.849142	0.000000	0.000000
838.759756	0.000000	0.000000
840.670371	0.000000	0.000000
842.580985	0.000000	0.000000
844.491600	0.000000	0.000000
846.402214	0.000000	0.000000
848.312829	0.000000	0.000000
850.223443	0.000000	0.000000
852.134058	0.000000	0.000000
854.044672	0.000000	0.000000
855.955287	0.000000	0.000000
857.865901	0.000000	0.000000
859.776516	0.000000	0.000000
861.687130	0.000000	0.000000
863.597745	0.000000	0.000000
865.508359	0.000000	0.000000
867.418974	0.000000	0.000000
869.329588	0.000000	0.000000
871.240203	0.000000	0.000000
873.150817	0.000000	0.000000
875.061432	0.000000	0.000000
876.972046	0.000000	0.000000
878.882661	0.000000	0.000000
880.793275	0.000000	0.000000
882.703890	0.000000	0.000000
884.614504	0.000000	0.000000
886.525118	0.000000	0.000000
888.435733	0.000000	0.000000
890.346347	0.000000	0.000000
892.256962	0.000000	0.000000
894.167576	0.000000	0.000000
896.078191	0.000000	0.000000
897.988805	0.000000	0.000000
899.899420	0.000000	0.000000
901.810034	0.000000	0.000000
903.720649	0.000000	0.000000
905.631263	0.000000	0.000000
907.541878	0.000000	0.000000
909.452492	0.000000	0.000000
911.363107	0.000000	0.000000
913.273721	0.000000	0.000000
915.184336	0.000000	0.000000
917.094950	0.000000	0.000000
919.005565	0.000000	0.000000
920.916179	0.000000	0.000000
922.826794	0.000000	0.000000
924.737408	0.000000	0.000000
926.648023	0.000000	0.000000
928.558637	0.000000	0.000000
930.469251	0.000000	0.000000
932.379866	0.000000	0.000000
934.290480	0.000000	0.000000
936.201095	0.000000	0.000000
938.111709	0.000000	0.000000
940.022324	0.000000	0.000000
941.932938	0.000000	0.000000
943.843553	0.000000	0.000000
945.754167	0.000000	0.000000
947.664782	0.000000	0.000000
949.575396	0.000000	0.000000
951.486011	0.000000	0.000000
953.396625	0.000128	0.000127
